nm	AB	MY
280	0.30729	0.3756
281	0.33264	0.3754
282	0.34793	0.3752
283	0.36981	0.3750
284	0.38404	0.3747
285	0.39042	0.3744
286	0.42365	0.3740
287	0.42931	0.3735
288	0.45299	0.3728
289	0.47400	0.3719
290	0.49501	0.3707
291	0.51279	0.3692
292	0.53389	0.3672
293	0.55344	0.3646
294	0.57991	0.3614
295	0.59867	0.3576
296	0.61743	0.3533
297	0.63765	0.3490
298	0.66305	0.3448
299	0.67869	0.3412
300	0.70232	0.3381
301	0.72940	0.3353
302	0.74760	0.3326
303	0.77235	0.3295
304	0.78964	0.3258
305	0.81169	0.3212
306	0.82972	0.3151
307	0.84022	0.3068
308	0.87151	0.2956
309	0.88036	0.2822
310	0.89494	0.2695
311	0.91505	0.2604
312	0.93038	0.2547
313	0.93392	0.2510
314	0.94348	0.2482
315	0.96086	0.2451
316	0.96745	0.2405
317	0.97789	0.2343
318	0.96817	0.2275
319	1.00000	0.2213
320	0.99251	0.2162
321	0.99138	0.2121
322	0.97858	0.2089
323	0.97548	0.2063
324	0.96145	0.2040
325	0.95537	0.2019
326	0.94567	0.1999
327	0.93920	0.1980
328	0.91680	0.1961
329	0.91515	0.1944
330	0.90464	0.1927
331	0.88565	0.1910
332	0.88042	0.1893
333	0.88017	0.1876
334	0.86253	0.1860
335	0.83483	0.1845
336	0.80897	0.1831
337	0.77958	0.1820
338	0.74774	0.1812
339	0.70821	0.1807
340	0.66787	0.1805
341	0.63080	0.1802
342	0.58761	0.1800
343	0.55453	0.1795
344	0.53288	0.1788
345	0.50908	0.1776
346	0.48209	0.1760
347	0.45747	0.1741
348	0.44383	0.1720
349	0.42738	0.1699
350	0.40525	0.1679
351	0.38447	0.1663
352	0.35499	0.1651
353	0.32646	0.1644
354	0.29262	0.1638
355	0.25408	0.1630
356	0.22427	0.1617
357	0.19129	0.1595
358	0.16000	0.1566
359	0.12729	0.1532
360	0.10672	0.1496
361	0.08520	0.1463
362	0.06829	0.1436
363	0.05548	0.1416
364	0.04723	0.1401
365	0.03484	0.1390
366	0.02867	0.1377
367	0.02565	0.1361
368	0.01748	0.1339
369	0.01602	0.1307
370	0.01287	0.1269
371	0.01144	0.1227
372	0.01214	0.1187
373	0.01205	0.1150
374	0.00949	0.1119
375	0.01004	0.1097
376	0.00942	0.1085
377	0.00450	0.1086
378	0.00775	0.1098
379	0.00527	0.1120
380	0.00678	0.1148
381	0.00619	0.1178
382	0.00521	0.1207
383	0.00664	0.1234
384	0.00515	0.1261
385	0.00616	0.1290
386	0.00615	0.1323
387	0.00584	0.1360
388	0.00753	0.1401
389	0.00664	0.1447
390	0.00668	0.1498
391	0.00671	0.1552
392	0.00785	0.1611
393	0.00736	0.1673
394	0.01011	0.1739
395	0.00868	0.1806
396	0.00746	0.1869
397	0.01011	0.1919
398	0.01003	0.1947
399	0.00957	0.1947
400	0.00931	0.1949
401	0.00800	0.2017
402	0.01103	0.2216
403	0.01144	0.2561
404	0.01372	0.2787
405	0.01146	0.2846
406	0.01318	0.2858
407	0.01096	0.2925
408	0.01260	0.3045
409	0.01275	0.3173
410	0.01432	0.3271
411	0.01266	0.3344
412	0.01540	0.3411
413	0.01436	0.3490
414	0.01431	0.3594
415	0.01573	0.3721
416	0.01628	0.3871
417	0.01702	0.4020
418	0.01704	0.4146
419	0.01819	0.4261
420	0.01870	0.4389
421	0.01682	0.4539
422	0.01782	0.4681
423	0.01932	0.4801
424	0.02019	0.4917
425	0.02039	0.5047
426	0.01950	0.5194
427	0.02060	0.5357
428	0.01856	0.5524
429	0.02149	0.5662
430	0.02068	0.5738
431	0.02110	0.5818
432	0.02145	0.6005
433	0.02245	0.6277
434	0.02148	0.6466
435	0.02446	0.6623
436	0.02260	0.6741
437	0.02498	0.6815
438	0.02268	0.6890
439	0.02158	0.7015
440	0.02248	0.7232
441	0.02289	0.7472
442	0.02369	0.7622
443	0.02348	0.7726
444	0.02224	0.7839
445	0.02213	0.7960
446	0.02272	0.8066
447	0.02463	0.8152
448	0.02425	0.8236
449	0.02355	0.8337
450	0.02397	0.8472
451	0.02398	0.8631
452	0.02265	0.8787
453	0.02378	0.8915
454	0.02359	0.9015
455	0.02377	0.9095
456	0.02191	0.9164
457	0.02238	0.9230
458	0.02123	0.9301
459	0.02172	0.9379
460	0.02177	0.9461
461	0.02267	0.9548
462	0.02233	0.9639
463	0.02270	0.9729
464	0.02040	0.9810
465	0.02119	0.9877
466	0.02107	0.9928
467	0.02089	0.9963
468	0.01991	0.9985
469	0.01890	0.9997
470	0.01976	1.0000
471	0.02006	0.9997
472	0.01881	0.9990
473	0.01895	0.9982
474	0.01790	0.9973
475	0.01699	0.9963
476	0.01592	0.9949
477	0.01752	0.9930
478	0.01610	0.9901
479	0.01681	0.9863
480	0.01617	0.9813
481	0.01580	0.9755
482	0.01581	0.9694
483	0.01289	0.9635
484	0.01423	0.9579
485	0.01485	0.9523
486	0.01435	0.9462
487	0.01321	0.9390
488	0.01291	0.9304
489	0.01293	0.9204
490	0.01135	0.9093
491	0.01146	0.8975
492	0.01358	0.8857
493	0.01022	0.8745
494	0.01045	0.8648
495	0.01001	0.8567
496	0.00938	0.8495
497	0.00935	0.8425
498	0.00780	0.8349
499	0.00853	0.8264
500	0.00796	0.8175
501	0.00874	0.8084
502	0.00818	0.7994
503	0.00791	0.7907
504	0.00730	0.7828
505	0.00711	0.7752
506	0.00726	0.7677
507	0.00750	0.7601
508	0.00654	0.7518
509	0.00515	0.7428
510	0.00619	0.7332
511	0.00674	0.7230
512	0.00606	0.7127
513	0.00525	0.7025
514	0.00500	0.6924
515	0.00420	0.6827
516	0.00365	0.6733
517	0.00418	0.6643
518	0.00455	0.6558
519	0.00366	0.6475
520	0.00375	0.6395
521	0.00288	0.6316
522	0.00203	0.6236
523	0.00340	0.6154
524	0.00259	0.6067
525	0.00289	0.5969
526	0.00230	0.5858
527	0.00239	0.5730
528	0.00375	0.5591
529	0.00166	0.5452
530	0.00265	0.5325
531	0.00101	0.5219
532	0.00164	0.5129
533	0.00129	0.5043
534	-0.00026	0.4952
535	0.00208	0.4846
536	0.00036	0.4727
537	0.00175	0.4613
538	0.00238	0.4521
539	0.00168	0.4448
540	0.00229	0.4385
541	0.00259	0.4318
542	0.00044	0.4234
543	0.00191	0.4129
544	0.00010	0.4008
545	0.00033	0.3882
546	0.00059	0.3757
547	0.00048	0.3644
548	0.00230	0.3545
549	0.00161	0.3454
550	0.00138	0.3369
551	-0.00073	0.3284
552	0.00087	0.3195
553	0.00033	0.3098
554	0.00013	0.2995
555	0.00195	0.2893
556	0.00159	0.2798
557	0.00018	0.2714
558	0.00110	0.2637
559	0.00192	0.2566
560	0.00101	0.2498
561	0.00174	0.2429
562	0.00120	0.2358
563	-0.00005	0.2281
564	-0.00057	0.2196
565	-0.00024	0.2101
566	0.00052	0.2000
567	0.00110	0.1903
568	0.00067	0.1814
569	0.00022	0.1731
570	0.00101	0.1655
571	0.00281	0.1585
572	-0.00177	0.1520
573	0.00103	0.1460
574	0.00048	0.1403
575	0.00081	0.1349
576	0.00076	0.1298
577	-0.00114	0.1247
578	0.00144	0.1198
579	0.00096	0.1148
580	0.00050	0.1099
581	0.00049	0.1049
582	-0.00068	0.1002
583	-0.00132	0.0958
584	-0.00089	0.0917
585	0.00117	0.0880
586	0.00024	0.0847
587	0.00073	0.0817
588	0.00095	0.0788
589	-0.00080	0.0761
590	-0.00089	0.0735
591	0.00088	0.0708
592	0.00075	0.0680
593	0.00086	0.0651
594	0.00064	0.0620
595	-0.00098	0.0588
596	-0.00044	0.0555
597	0.00102	0.0522
598	0.00043	0.0488
599	-0.00061	0.0455
600	0.00068	0.0422
601	-0.00019	0.0390
602	0.00091	0.0359
603	0.00026	0.0330
604	0.00119	0.0302
605	-0.00051	0.0276
606	-0.00091	0.0253
607	-0.00194	0.0231
608	-0.00060	0.0212
609	0.00089	0.0195
610	-0.00017	0.0180
611	0.00193	0.0168
612	-0.00029	0.0157
613	0.00084	0.0149
614	-0.00052	0.0142
615	0.00063	0.0138
616	0.00028	0.0134
617	-0.00020	0.0132
618	0.00027	0.0131
619	0.00272	0.0130
620	0.00030	0.0130
621	-0.00132	0.0129
622	0.00160	0.0128
623	-0.00075	0.0125
624	0.00017	0.0122
625	0.00238	0.0117
626	0.00162	0.0111
627	-0.00047	0.0102
628	0.00096	0.0091
629	0.00110	0.0079
630	-0.00010	0.0065
631	-0.00013	0.0051
632	0.00048	0.0038
633	0.00107	0.0026
634	0.00066	0.0016
635	-0.00071	0.0009
636	-0.00034	0.0005
637	-0.00016	0.0003
638	-0.00065	0.0004
639	0.00186	0.0007
640	0.00064	0.0011
641	0.00098	0.0016
642	0.00062	0.0022
643	-0.00185	0.0028
644	0.00099	0.0034
645	-0.00147	0.0040
646	0.00052	0.0044
647	0.00004	0.0048
648	-0.00020	0.0050
649	0.00083	0.0051
650	0.00022	0.0051
651	0.00028	0.0050
652	0.00047	0.0048
653	0.00077	0.0046
654	0.00066	0.0043
655	-0.00033	0.0040
656	-0.00009	0.0036
657	0.00006	0.0033
658	-0.00013	0.0029
659	0.00128	0.0026
660	0.00090	0.0023
661	-0.00069	0.0021
662	-0.00009	0.0019
663	0.00047	0.0018
664	0.00113	0.0017
665	0.00227	0.0016
666	0.00144	0.0016
667	-0.00012	0.0016
668	0.00092	0.0016
669	0.00197	0.0017
670	-0.00067	0.0018
671	0.00239	0.0019
672	0.00289	0.0021
673	0.00061	0.0022
674	-0.00052	0.0024
675	0.00012	0.0026
676	0.00155	0.0028
677	0.00046	0.0030
678	0.00055	0.0032
679	0.00005	0.0034
680	0.00114	0.0036
681	0.00061	0.0038
682	-0.00128	0.0040
683	-0.00033	0.0042
684	0.00127	0.0043
685	0.00127	0.0044
686	-0.00127	0.0045
687	0.00190	0.0046
688	-0.00091	0.0046
689	0.00066	0.0046
690	0.00076	0.0045
691	-0.00143	0.0044
692	0.00069	0.0043
693	0.00151	0.0042
694	-0.00141	0.0040
695	0.00017	0.0039
696	0.00053	0.0037
697	-0.00032	0.0035
698	-0.00006	0.0033
699	0.00312	0.0031
700	0.00145	0.0028
